x,y,z,radius
29.94684638675055,-21.128884138717165,27.415202185221936,1.2
29.569221457524186,-20.7577320973562,26.954938960058087,1.2
29.19159652829783,-20.38658005599523,26.494675734894223,1.2
28.81397159907145,-20.015428014634267,26.034412509730373,1.2
28.436346669845094,-19.644275973273295,25.574149284566516,1.2
28.058721740618722,-19.273123931912327,25.113886059402653,1.2
27.68109681139235,-18.90197189055136,24.653622834238796,1.2
27.303471882165987,-18.530819849190397,24.193359609074946,1.2
26.925846952939622,-18.15966780782943,23.733096383911082,1.2
26.548222023713258,-17.788515766468453,23.272833158747233,1.2
26.17059709448688,-17.417363725107492,22.81256993358337,1.2
25.792972165260515,-17.04621168374652,22.352306708419526,1.2
25.41534723603415,-16.675059642385555,21.892043483255655,1.2
25.03772230680778,-16.303907601024584,21.431780258091806,1.2
24.660097377581415,-15.93275555966362,20.97151703292794,1.2
24.282472448355044,-15.561603518302649,20.511253807764085,1.2
23.904847519128673,-15.19045147694168,20.050990582600235,1.2
23.52722258990231,-14.819299435580715,19.590727357436364,1.2
23.149597660675944,-14.448147394219747,19.130464132272515,1.2
22.771972731449573,-14.076995352858786,18.670200907108658,1.2
22.39434780222321,-13.705843311497821,18.209937681944794,1.2
22.016722872996844,-13.334691270136846,17.749674456780937,1.2
21.639097943770473,-12.96353922877588,17.289411231617088,1.2
21.2614730145441,-12.592387187414912,16.829148006453224,1.2
20.883848085317737,-12.221235146053948,16.368884781289374,1.2
20.506223156091373,-11.850083104692981,15.908621556125512,1.2
20.129257915171564,-11.477201112688256,15.449242024256927,1.2
19.763153764080485,-11.077674190972443,15.004335998639524,1.2
19.43507489030695,-10.600019964236933,14.609431180912251,1.2
19.14385916428831,-10.065031010487736,14.261766055528868,1.2
18.883997753682564,-9.491002371923791,13.953608484170916,1.2
18.64770671885367,-8.891819946051005,13.675656886467658,1.2
18.4243019811245,-8.279382793398135,13.416456881536911,1.2
18.203187865833186,-7.6622834413873555,13.166477597532777,1.2
17.97360306021877,-7.047698228055404,12.91800586961302,1.2
17.723710679466343,-6.443539619718443,12.663862288936238,1.2
17.440031851812634,-5.860369049956118,12.397057482511238,1.2
17.10784396820118,-5.313518617612054,12.111167270082236,1.2
16.71339112038286,-4.82497901073733,11.801707959688878,1.2
16.250435510221386,-4.419103160583235,11.469430180216387,1.2
15.724234616616252,-4.116155772961111,11.12177657344621,1.2
15.150388639465492,-3.9231583693719476,10.770244781056904,1.2
14.547352212727946,-3.83358431256137,10.425101564151673,1.2
13.93060276939631,-3.8351785148213176,10.092108410025398,1.2
13.311854685962816,-3.917462564994247,9.772908996306617,1.2
12.700824957978421,-4.073973770629397,9.46670252471,1.2
12.106361160544102,-4.300301072105141,9.171632147416156,1.2
11.53581797443458,-4.5908702616045005,8.885609328271096,1.2
10.993192173504909,-4.936764460823971,8.606689646778728,1.2
10.477470259010586,-5.325787069707218,8.333354340125554,1.2
9.982815245202486,-5.744571791137117,8.064885716909346,1.2
9.49899033494998,-6.179058212293491,7.801590281314512,1.2
9.013757067890838,-6.61614365290149,7.545315204126302,1.2
8.514043361399116,-7.043034268209979,7.300095513833218,1.2
7.986395347221476,-7.445306004117652,7.072834706891539,1.2
7.4206107085791775,-7.807815816532184,6.872413502279938,1.2
6.814655832584116,-8.118789316534263,6.706205971569423,1.2
6.172967826511696,-8.370739780979408,6.57882017063204,1.2
5.505315416049781,-8.564914957993425,6.488538133557936,1.2
4.8221196151788455,-8.711022759195707,6.4273424318104,1.2
4.131044758460128,-8.823153399704331,6.383852345192002,1.2
3.4365306349209135,-8.914924055737496,6.346680001593532,1.2
2.740919013752377,-8.996649905214863,6.30636534409418,1.2
2.045470851889511,-9.07422014798414,6.256327478375285,1.2
1.350761182254236,-9.148612067381757,6.19305435255483,1.2
0.656807649263599,-9.216246304403352,6.115560819101079,1.2
-0.03675246456368697,-9.269586938625787,6.024715483554237,1.2
-0.730117771346471,-9.298060434488164,5.92230708369898,1.2
-1.4223851376373862,-9.289115592194472,5.809990504157577,1.2
-2.110440763639088,-9.229833062143507,5.688241576140568,1.2
-2.788057918357454,-9.108532969456824,5.555363395640329,1.2
-3.4453468413141843,-8.915734221457262,5.406689174983951,1.2
-4.070015394600057,-8.648246983853097,5.23533623441258,1.2
-4.6493958939996105,-8.309514054567945,5.0340615819592855,1.2
-5.171375069030231,-7.907000302785695,4.796752339975855,1.2
-5.626025894849889,-7.451181113273989,4.52018904911686,1.2
-6.0092436764069275,-6.954906013054796,4.207009473315473,1.2
-6.321096728411034,-6.42853883884788,3.8647863610302124,1.2
-6.563391419157117,-5.878117513666751,3.5043688489763234,1.2
-6.738378216372329,-5.305891132291119,3.138892785272672,1.2
-6.8481406923239305,-4.712391741607846,2.7820215628104847,1.2
-6.895316972524117,-4.099087511726022,2.4454392986034357,1.2
-6.884565993965345,-3.470287983687785,2.135244029306145,1.2
-6.823410119529445,-2.833019165321614,1.8488598483569945,1.2
-6.7216019162577965,-2.1954253970774693,1.5747780680459833,1.2
-6.58970025514205,-1.5656268644511377,1.2954650596132034,1.2
-6.438007273702634,-0.9518491532446061,0.9917858999081339,1.2
-6.276054801218979,-0.3632924093002523,0.646732511277424,1.2
-6.112174219402349,0.19227426642087364,0.2517250040614538,1.2
-5.95188590657988,0.7093066602797324,-0.19386034392160667,1.2
-5.797316396456866,1.1857988619262239,-0.6845241365372701,1.2
-5.64734979899062,1.6227961395403945,-1.2121323471120817,1.2
-5.498198114305408,2.0220456411825247,-1.7691470290668452,1.2
-5.344296529240087,2.3832531726752517,-2.350308181481667,1.2
-5.1795515948157345,2.701143779058321,-2.953298626422419,1.2
-5.000317168176458,2.9647011936832146,-3.5777022404298178,1.2
-4.8086370706020665,3.15468780616684,-4.224371439351547,1.2
-4.616819442371017,3.2564240050195306,-4.890422392692387,1.2
-4.4442520099288965,3.2714240241811785,-5.569390897190612,1.2
-4.30871261921375,3.2217275316439804,-6.255392436765683,1.2
-4.220832817476488,3.140039833062265,-6.946307731930942,1.2
-4.18317026720344,3.059648533878286,-7.641906893513937,1.2
-4.197139965332912,3.008928147228426,-8.341013881589753,1.2
-4.266783324899173,3.0159659403388615,-9.038249479458202,1.2
-4.402479828506975,3.114267120324154,-9.717897643702237,1.2
-4.623000627568493,3.345022884701326,-10.339097971042147,1.2
-4.9454215637563355,3.737073970533524,-10.815053644336055,1.2
-5.356801804267574,4.255031857840835,-11.022142677931065,1.2
-5.80006930005597,4.789702924274581,-10.961135581543346,1.2
-6.242030624828467,5.2797039446897305,-10.728307239262415,1.2
-6.676495889986451,5.7143023063613345,-10.391777747586415,1.2
-7.103975197280958,6.096793150587374,-9.988789962090697,1.2
-7.525203319415726,6.433199200218031,-9.54030273393321,1.2
-7.939011380208763,6.725832915779044,-9.055554366977914,1.2
-8.343143880580534,6.979243961149162,-8.541351244107782,1.2
-8.734839728186643,7.19814571050309,-8.002234082350249,1.2
-9.110820430732897,7.385832503037841,-7.440607686152687,1.2
-9.467995458271321,7.547540460030023,-6.858955882009875,1.2
-9.803242598626955,7.691394145271149,-6.259806943974649,1.2
-10.112176200376199,7.8282774524280505,-5.645108477799046,1.2
-10.387932483091982,7.970242840326307,-5.016062761324673,1.2
-10.621054691908729,8.12848481300208,-4.374002340450139,1.2
-10.80048188709816,8.312191539796167,-3.7218633289609304,1.2
-10.914568445178176,8.528510000471254,-3.0653487621661055,1.2
-10.952128490571216,8.783008247873981,-2.413838811564114,1.2
-10.903913290163214,9.07982880135803,-1.781353113606519,1.2
-10.76275867684691,9.422614306947466,-1.1873316495143342,1.2
-10.525922338842436,9.814273682080831,-0.657606160175483,1.2
-10.198516335286808,10.255975201243483,-0.2244647975917431,1.2
-9.798434350600964,10.744456207419057,0.07742963731652708,1.2
-9.35847900963902,11.27096401034333,0.21495852915528602,1.2
-8.920463487112185,11.81764227203867,0.20350732377475467,1.2
-8.507900828198142,12.373481807977313,0.09176039216750631,1.2
-8.124921242132986,12.937830054330853,-0.07214827587244876,1.2
-7.76770742522015,13.514754177757943,-0.25019958586986135,1.2
-7.433394571351753,14.109159050396844,-0.41465819257839875,1.2
-7.1216638858580446,14.723282791134181,-0.5478753711955644,1.2
-6.836967919608657,15.357882207425876,-0.6385957174208876,1.2
-6.587126814541138,16.011946764143765,-0.6796966153770487,1.2
-6.382122603686781,16.68247527290073,-0.6670134306462341,1.2
-6.233113879777962,17.364163069000302,-0.5983385025751922,1.2
-6.152961887108955,18.048963844657592,-0.47193757674610914,1.2
-6.130828323485349,18.72941755449014,-0.3028196627614843,1.2
-6.112381636024925,19.40938326126944,-0.13105546939039492,1.2
-6.093984538778387,20.08934144483792,0.04074405572260176,1.2
-6.075587441531848,20.76929962840638,0.21254358083559488,1.2
-6.057190344285311,21.44925781197483,0.38434310594858623,1.2
-6.038793247038771,22.129215995543287,0.5561426310615811,1.2
-6.020396149792235,22.809174179111753,0.7279421561745743,1.2
-6.001999052545693,23.489132362680202,0.8997416812875656,1.2
-5.983601955299156,24.16909054624865,1.071541206400557,1.2
-5.965204858052616,24.84904872981711,1.24334073151355,1.2
-5.946807760806079,25.529006913385572,1.4151402566265432,1.2
-5.928410663559539,26.208965096954028,1.5869397817395363,1.2
-5.910013566313001,26.888923280522487,1.7587393068525294,1.2
-5.891616469066462,27.568881464090957,1.9305388319655243,1.2
-5.873219371819922,28.24883964765941,2.1023383570785192,1.2
-5.854822274573385,28.928797831227875,2.2741378821915124,1.2
-5.836425177326845,29.608756014796327,2.4459374073045055,1.2
-5.818028080080308,30.28871419836479,2.6177369324174986,1.2
